Energy (GeV),Photons,N_e+,N_e-,N_mu+,N_mu-,N_pi0,N_pi+,N_pi-,N_n,N_p,N_pbar,N_others,Total_per_bin
4.47E-05,2803,0,0,0,0,0,0,0,0,0,0,0,2803
5.01E-05,151515,0,0,0,0,0,0,0,0,0,0,0,151515
5.62E-05,183361,0,0,0,0,0,0,0,0,0,0,0,183361
6.31E-05,214115,0,0,0,0,0,0,0,0,0,0,0,214115
7.08E-05,244999,0,0,0,0,0,0,0,0,0,0,0,244999
7.94E-05,275253,0,0,0,0,0,0,0,0,0,0,0,275253
8.91E-05,301409,0,0,0,0,0,0,0,0,0,0,0,301409
1.E-04,327984,0,0,0,0,0,0,0,0,0,0,0,327984
1.12E-04,357765,0,0,0,0,0,0,0,0,0,0,0,357765
1.26E-04,387686,0,0,0,0,0,0,0,0,0,0,0,387686
1.41E-04,419196,0,0,0,0,0,0,0,0,0,0,0,419196
1.58E-04,449151,0,0,0,0,0,0,0,0,0,0,0,449151
1.78E-04,482330,0,0,0,0,0,0,0,0,0,0,0,482330
2.E-04,511145,0,0,0,0,0,0,0,0,0,0,0,511145
2.24E-04,539545,7,1525,0,0,0,0,0,0,0,0,0,541077
2.51E-04,564941,6,2932,0,0,0,0,0,0,0,0,0,567879
2.82E-04,588547,27,3792,0,0,0,0,0,0,0,0,0,592366
3.16E-04,611141,27,4475,0,0,0,0,0,0,0,0,0,615643
3.55E-04,634122,56,5800,0,0,0,0,0,0,0,0,0,639978
3.98E-04,654536,99,7109,0,0,0,0,0,0,0,0,0,661744
4.47E-04,677507,164,8708,0,0,0,0,0,0,0,0,0,686379
5.01E-04,736735,284,10437,0,0,0,0,0,0,0,0,0,747456
5.62E-04,700859,399,12307,0,0,0,0,0,0,0,0,0,713565
6.31E-04,718316,629,14616,0,0,0,0,0,0,0,0,0,733561
7.08E-04,733523,875,16772,0,0,0,0,0,0,0,0,0,751170
7.94E-04,744133,1144,19468,0,0,0,0,0,0,0,0,0,764745
8.91E-04,757620,1623,21937,0,0,0,0,0,0,0,0,0,781180
1.E-03,768510,2090,24515,0,0,0,0,0,0,0,0,0,795115
1.12E-03,779427,2870,27365,0,0,0,0,0,0,0,0,0,809662
1.26E-03,787148,3637,30257,0,0,0,0,0,0,0,0,0,821042
1.41E-03,797291,4400,32606,0,0,0,0,0,0,0,0,0,834297
1.58E-03,806499,5160,35018,0,0,0,0,0,0,0,0,0,846677
1.78E-03,815711,6694,39366,0,0,0,0,0,0,0,0,0,861771
2.E-03,828802,8452,43514,0,0,0,0,0,0,0,0,0,880768
2.24E-03,832949,10116,48004,0,0,0,0,0,0,0,0,0,891069
2.51E-03,839003,11928,52104,0,0,0,0,0,0,0,0,0,903035
2.82E-03,848686,14097,55818,0,0,0,0,0,0,0,0,0,918601
3.16E-03,857869,16128,59303,0,0,0,0,0,0,0,0,0,933300
3.55E-03,872313,18859,62586,0,0,0,0,0,0,0,0,0,953758
3.98E-03,883475,20957,65103,0,0,0,0,0,0,0,0,0,969535
4.47E-03,882476,23219,68282,0,0,0,0,0,0,0,0,0,973977
5.01E-03,871036,25828,70727,0,0,0,0,0,0,0,0,0,967591
5.62E-03,872049,28207,73001,0,0,0,0,0,0,0,0,0,973257
6.31E-03,874546,30730,75153,0,0,0,0,0,0,0,0,0,980429
7.08E-03,861433,33029,76388,0,0,0,0,0,0,0,0,0,970850
7.94E-03,855715,35133,77645,0,0,0,0,0,0,0,0,0,968493
8.91E-03,846289,37505,78335,0,0,0,0,0,0,0,0,0,962129
1.E-02,827431,39828,79037,0,0,0,0,0,0,0,0,0,946296
1.12E-02,808288,41836,79205,0,0,0,0,0,0,0,0,0,929329
1.26E-02,787144,43245,79028,0,0,0,0,0,0,0,0,0,909417
1.41E-02,764268,44826,78410,0,0,0,0,0,0,0,0,0,887504
1.58E-02,736363,46012,77111,0,0,0,0,0,0,0,0,0,859486
1.78E-02,705432,46737,76408,0,0,0,0,0,0,0,0,0,828577
2.E-02,671001,47424,74704,0,0,0,0,0,0,0,0,0,793129
2.24E-02,633578,47959,72891,0,0,0,0,0,0,0,0,0,754428
2.51E-02,596350,48345,71236,0,0,0,0,0,0,0,0,0,715931
2.82E-02,559080,48472,68506,0,0,0,0,0,0,0,0,0,676058
3.16E-02,518515,47764,65858,0,0,0,0,0,0,0,0,0,632137
3.55E-02,482060,47569,63728,0,0,0,0,0,0,0,0,0,593357
3.98E-02,442308,46416,60662,0,0,0,0,0,0,0,0,0,549386
4.47E-02,402588,45730,58437,0,0,0,0,0,0,0,0,0,506755
5.01E-02,355209,44362,55703,0,0,0,0,0,0,0,0,0,455274
5.62E-02,321275,42865,52372,0,0,0,0,0,0,0,0,0,416512
6.31E-02,291130,41173,49892,0,0,0,0,0,0,0,0,0,382195
7.08E-02,261609,39272,46567,0,0,0,0,0,0,0,0,0,347448
7.94E-02,235604,37487,43821,0,0,0,0,0,0,0,0,0,316912
8.91E-02,212334,35565,41141,0,0,0,0,0,0,0,0,0,289040
1.E-01,188409,33637,38210,0,0,0,0,0,0,0,0,0,260256
1.12E-01,168889,31514,35664,3763,4052,0,0,0,0,0,0,0,243882
1.26E-01,150640,29724,32466,5478,6139,0,9,24,0,0,0,0,224480
1.41E-01,133589,27361,29648,7255,7645,0,30,35,0,0,0,0,205563
1.58E-01,118355,25183,27242,8800,9579,0,34,34,0,0,0,0,189227
1.78E-01,104554,22918,24741,11304,11573,0,38,48,0,0,0,0,175176
2.E-01,92074,21068,22661,13602,13902,0,60,46,0,0,0,0,163413
2.24E-01,80755,19346,20372,16292,16675,0,53,84,0,0,0,0,153577
2.51E-01,71434,17384,18205,19224,19251,0,74,100,0,0,0,0,145672
2.82E-01,62461,15450,15987,21942,22201,0,81,126,36374,4294,1,0,178917
3.16E-01,54158,13704,14030,25305,24561,0,112,132,251814,28908,0,0,412724
3.55E-01,47951,12225,12692,28538,27561,0,127,172,269708,33666,1,0,432641
3.98E-01,41729,11074,11100,31737,29977,0,166,163,272181,38250,1,4,436382
4.47E-01,35612,9771,9603,34638,32528,0,162,196,276828,42180,3,7,441528
5.01E-01,30757,8311,8402,38255,35239,0,183,204,275410,45928,8,8,442705
5.62E-01,26495,7247,7170,41373,37288,0,218,254,258038,47894,2,11,425990
6.31E-01,22261,6174,6153,44170,39652,0,219,224,227239,48559,5,9,394665
7.08E-01,19254,5305,5189,46875,41524,0,225,235,190784,47627,5,5,357028
7.94E-01,15810,4514,4447,49227,43774,0,203,236,151820,45864,8,11,315914
8.91E-01,13295,3801,3752,51338,45141,0,230,246,120769,43224,8,6,281810
1.E+00,11341,3367,3227,53334,46171,0,221,219,97714,41083,6,16,256699
1.12E+00,9414,2660,2677,54645,47122,0,180,221,80765,38022,15,29,235750
1.26E+00,8040,2225,2195,55400,46877,0,193,194,67847,34843,20,31,217865
1.41E+00,6511,1883,1825,55851,46764,0,206,211,56852,31131,20,23,201277
1.58E+00,5536,1522,1531,55549,45999,0,188,194,45735,27795,30,34,184113
1.78E+00,4458,1310,1279,54477,45083,0,188,173,37430,24321,25,50,168794
2.E+00,3583,1045,1044,53028,43453,0,164,178,30555,21326,39,34,154449
2.24E+00,3032,919,803,51464,41632,0,142,146,25477,18333,43,48,142039
2.51E+00,2515,641,721,48317,39064,0,148,146,20655,15884,30,55,128176
2.82E+00,2047,558,535,45527,36427,0,143,134,16829,13332,27,45,115604
3.16E+00,1663,472,470,42617,33935,0,107,137,13403,11067,41,46,103958
3.55E+00,1438,412,361,38879,30934,0,114,111,11067,9266,26,49,92657
3.98E+00,1099,280,295,35458,28618,0,119,119,8917,7919,36,38,82898
4.47E+00,884,256,233,31966,25607,0,107,98,7460,7047,34,38,73730
5.01E+00,705,197,181,28697,23078,0,88,96,6080,6096,36,38,65292
5.62E+00,592,173,162,25664,20581,0,82,80,5049,4868,25,31,57307
6.31E+00,472,112,127,22361,18235,0,93,69,3720,4222,24,31,49466
7.08E+00,360,108,101,19830,16018,0,89,71,2802,3393,21,23,42816
7.94E+00,305,81,97,17137,14094,0,75,80,1969,2422,12,22,36294
8.91E+00,249,75,74,14887,12148,0,87,55,1476,1851,17,25,30944
1.E+01,219,59,66,12645,10302,0,68,63,1082,1397,13,24,25938
1.12E+01,193,52,38,10977,8861,0,47,63,867,1155,9,22,22284
1.26E+01,124,32,40,9298,7565,0,56,54,699,942,7,12,18829
1.41E+01,120,25,27,7814,6441,0,49,59,569,829,6,18,15957
1.58E+01,94,19,15,6515,5332,0,53,29,462,671,16,15,13221
1.78E+01,75,14,14,5422,4597,0,48,41,366,573,11,16,11177
2.E+01,63,11,12,4474,3823,0,47,31,327,427,10,12,9237
2.24E+01,53,14,6,3717,2966,0,42,35,245,381,7,11,7477
2.51E+01,31,10,8,3060,2645,0,39,31,188,298,4,14,6328
2.82E+01,27,2,3,2583,2100,0,38,26,152,234,8,4,5177
3.16E+01,17,9,3,2032,1690,0,27,23,118,201,1,3,4124
3.55E+01,19,4,5,1558,1332,0,29,21,105,194,2,8,3277
3.98E+01,17,0,5,1364,1086,0,26,20,65,129,1,3,2716
4.47E+01,15,3,3,983,913,0,21,23,62,109,1,7,2140
5.01E+01,9,4,6,814,704,0,21,17,66,104,0,5,1750
5.62E+01,5,1,2,677,578,0,12,14,45,84,1,4,1423
6.31E+01,4,4,0,522,414,0,14,13,37,73,1,5,1087
7.08E+01,7,3,0,436,368,0,14,11,40,50,1,4,934
7.94E+01,5,0,0,340,289,0,10,14,46,68,2,4,778
8.91E+01,3,0,0,252,216,0,15,8,22,39,0,4,559
1.E+02,4,0,0,203,177,0,8,7,24,50,1,3,477
1.12E+02,2,0,0,137,125,0,5,3,26,25,1,1,325
1.26E+02,2,1,1,97,101,0,2,9,12,23,1,2,251
1.41E+02,1,0,1,108,65,0,3,3,5,18,0,1,205
1.58E+02,1,0,0,70,52,0,3,3,11,19,0,0,159
1.78E+02,0,0,0,53,45,0,2,4,9,20,0,3,136
2.E+02,0,0,1,33,34,0,3,5,7,9,0,1,93
2.24E+02,0,1,0,22,31,0,2,2,6,9,0,1,74
2.51E+02,0,0,0,25,15,0,2,2,6,7,0,0,57
2.82E+02,3,0,0,23,23,0,3,0,3,10,0,1,66
3.16E+02,0,0,0,10,7,0,0,2,1,5,0,2,27
3.55E+02,0,0,0,14,9,0,4,2,3,2,0,0,34
3.98E+02,0,0,0,7,4,0,0,1,0,4,0,0,16
4.47E+02,0,0,0,6,7,0,0,0,1,3,0,1,18
5.01E+02,0,0,0,6,3,0,2,0,1,1,0,0,13
5.62E+02,0,0,0,2,1,0,0,1,2,2,0,0,8
6.31E+02,0,0,0,3,3,0,0,0,0,0,0,0,6
7.08E+02,0,0,0,3,1,0,0,0,0,1,0,0,5
7.94E+02,0,0,0,1,0,0,0,0,2,1,0,0,4
8.91E+02,0,0,0,0,2,0,0,0,0,1,0,0,3
1.E+03,0,0,0,1,0,0,0,0,0,2,0,0,3
1.12E+03,0,0,0,0,2,0,0,0,0,1,0,0,3
1.26E+03,0,0,0,0,0,0,0,0,0,0,0,0,0
1.41E+03,0,0,0,0,0,0,0,0,0,0,0,0,0
1.58E+03,0,0,0,0,0,0,0,0,0,0,0,0,0
1.78E+03,0,0,0,0,1,0,0,0,0,1,0,0,2
2.E+03,0,0,0,1,0,0,0,0,0,1,0,0,2
